0  2 0 2 0
1  32 32 32 32
2  32 32 32 32
3  32 31 35 32
4  32 32 31 32
5  32 31 38 32
6  32 32 31 32
7  32 33 32 32
8  31 32 31 31
9  32 31 31 32
10  32 33 33 33
11  31 32 32 31
12  32 34 33 33
13  31 32 34 32
14  30 32 31 32
15  32 32 31 32
16  31 32 32 31
17  30 30 33 31
18  31 32 32 33
19  32 33 32 32
20  32 32 32 33
21  32 32 32 32
22  30 31 29 31
23  50 60 46 46
24  32 32 32 33
25  63 63 63 63
26  32 34 31 32
27  31 31 31 32
28  32 32 32 33
29  33 33 32 32
30  32 31 32 32
31  32 30 30 32
32  32 33 34 35
33  32 33 32 32
34  32 33 33 32
35  32 32 32 31
36  32 33 33 32
37  33 41 34 43
38  32 38 34 33
39  36 42 35 44
40  32 36 32 43
41  39 34 36 39
42  34 37 33 32
43  31 32 30 32
44  31 31 31 32
45  33 33 33 33
46  32 34 32 34
47  31 32 32 31
48  32 32 32 33
49  31 31 31 31
50  31 32 31 32
51  32 33 32 33
52  30 31 29 30
53  32 31 31 32
54  31 31 31 32
55  33 32 32 33
56  32 33 33 33
57  30 32 31 32
58  30 30 30 30
59  31 32 31 33
60  22 29 25 29
61  31 32 31 30
62  32 33 33 34
63  29 29 28 30
64  30 31 31 32
65  31 32 31 32
66  36 42 36 49
67  33 33 34 33
68  33 33 32 32
69  32 34 32 32
70  32 32 32 33
71  32 33 33 33
72  32 33 31 32
73  32 33 31 32
74  34 34 33 34
75  32 34 32 33
76  33 35 34 33
77  34 34 33 34
78  32 34 32 34
79  32 32 32 33
80  30 32 30 31
81  35 36 34 35
82  33 34 32 33
83  30 32 33 32
84  33 33 34 34
85  33 35 34 33
86  33 33 33 33
87  31 31 32 33
88  35 38 37 43
89  33 33 36 35
90  33 34 33 34
91  29 32 30 31
92  34 35 34 35
93  31 33 30 32
94  32 34 33 33
95  33 34 32 33
96  32 32 32 32
97  32 32 31 32
98  33 34 32 33
99  34 34 33 34
100  33 33 32 33
101  32 34 32 33
102  41 39 35 35
103  32 32 32 32
104  33 35 33 33
105  33 34 34 34
106  34 36 34 33
107  31 32 31 32
108  29 31 30 31
109  31 33 33 32
110  36 35 35 39
111  32 33 32 34
112  30 33 32 32
113  37 35 35 35
114  30 33 28 31
115  32 36 36 35
116  28 30 30 31
117  32 33 31 33
118  33 34 32 34
119  33 33 32 35
120  31 32 33 32
121  33 34 33 34
122  31 33 32 32
123  35 36 34 35
124  30 32 29 31
125  32 32 31 34
126  34 40 35 36
127  30 32 32 32
128  32 32 32 33
129  32 32 32 33
130  32 32 32 32
131  32 32 32 32
132  31 32 31 32
133  32 33 32 33
134  32 32 32 33
135  32 31 31 32
136  32 32 32 32
137  32 33 32 33
138  31 32 32 32
139  33 32 32 33
140  31 32 32 32
141  31 31 30 32
142  32 32 32 34
143  34 35 34 38
144  31 32 31 32
145  31 32 31 32
146  32 32 32 32
147  31 32 32 32
148  30 31 31 31
149  32 33 33 33
150  28 30 32 31
151  30 32 30 32
152  32 33 32 33
153  31 32 33 32
154  32 31 31 31
155  29 30 30 31
156  31 32 32 32
157  32 32 32 32
158  29 30 31 32
159  33 34 33 34
160  32 32 32 33
161  31 32 32 32
162  32 33 32 32
163  32 32 32 32
164  30 32 31 31
165  32 33 33 33
166  32 32 31 32
167  32 32 30 31
168  31 32 31 32
169  32 33 32 32
170  33 34 32 33
171  33 33 32 33
172  32 32 33 33
173  32 33 33 33
174  34 33 33 35
175  33 34 32 33
176  33 33 34 34
177  33 34 33 34
178  35 38 33 37
179  33 35 37 42
180  34 34 32 33
181  33 34 32 32
182  29 31 30 31
183  31 33 32 32
184  31 32 31 32
185  34 39 33 33
186  32 33 32 32
187  31 32 32 32
188  31 32 32 32
189  33 33 33 33
190  32 32 32 32
191  33 33 32 33
192  32 32 32 32
193  33 33 31 32
194  32 32 31 33
195  31 32 31 32
196  33 33 33 34
197  33 34 32 33
198  32 32 32 33
199  32 32 32 32
200  32 33 32 32
201  33 32 31 32
202  31 32 31 32
203  30 31 31 32
204  30 32 31 33
205  31 32 32 33
206  32 33 32 32
207  31 32 31 32
208  31 32 32 32
209  33 32 32 32
210  34 44 33 34
211  33 34 33 35
212  33 32 34 34
213  31 32 30 32
214  31 32 31 32
215  32 34 33 34
216  32 33 32 32
217  36 37 35 37
218  32 33 33 33
219  32 33 33 32
220  35 47 35 48
221  31 30 31 32
222  33 34 33 33
223  32 32 32 33
224  32 33 33 34
225  29 32 30 31
226  31 32 32 32
227  30 31 31 32
228  32 32 30 32
229  32 33 32 32
230  32 32 32 33
231  32 32 32 32
232  31 30 28 31
233  33 32 34 34
234  33 33 32 32
235  31 31 31 32
236  31 32 31 31
237  32 35 34 34
238  59 63 63 63
239  32 33 33 32
240  33 34 33 34
241  30 31 30 31
242  31 31 31 31
243  32 33 31 32
244  29 31 29 31
245  33 33 32 32
246  32 33 33 32
247  31 31 32 33
248  32 33 34 33
249  31 31 32 32
250  32 33 32 33
251  32 33 32 32
252  32 33 33 33
253  34 34 34 34
254  32 33 33 33
255  32 33 34 34
256  32 32 31 32
257  32 32 32 32
258  32 33 32 32
259  31 32 31 31
260  30 32 31 32
261  31 32 31 31
262  32 34 32 33
263  32 33 32 36
264  33 34 32 33
265  33 33 32 32
266  32 35 33 34
267  32 32 32 33
268  32 33 34 34
269  36 46 37 46
270  32 32 33 33
271  35 35 34 35
272  41 47 41 42
273  34 34 34 35
274  32 34 33 33
275  32 35 33 33
276  33 32 33 34
277  30 33 32 34
278  33 34 33 35
279  32 32 32 33
280  33 35 32 33
281  32 33 32 34
282  34 36 39 35
283  33 34 33 34
284  33 34 33 34
285  33 33 33 34
286  33 36 34 33
287  34 35 33 34
288  31 32 31 32
289  31 31 32 32
290  34 33 32 32
291  31 32 32 32
292  32 32 32 32
293  32 34 32 33
294  31 33 33 32
295  32 31 31 32
296  31 30 29 32
297  30 32 30 30
298  31 31 29 32
299  32 34 32 32
300  30 32 31 31
301  33 33 33 33
302  31 32 28 32
303  28 31 28 31
304  31 31 30 31
305  32 33 29 32
306  32 34 33 32
307  30 30 32 32
308  34 34 33 32
309  32 32 31 32
310  31 32 31 32
311  30 31 28 31
312  33 35 33 34
313  34 33 34 33
314  32 33 34 34
315  32 32 32 32
316  32 34 33 33
317  0 0 0 0
318  35 47 34 37
319  32 34 33 34
320  31 32 30 32
321  32 33 32 32
322  34 35 32 33
323  31 31 30 32
324  63 63 60 63
325  32 32 31 32
326  33 34 33 32
327  31 30 29 32
328  29 31 29 30
329  32 32 31 32
330  33 32 32 32
331  26 28 29 24
332  32 31 32 32
333  30 31 30 31
334  24 29 29 30
335  26 26 27 30
336  31 30 29 30
337  30 31 31 32
338  28 31 29 30
339  32 33 32 32
340  34 33 31 33
341  32 33 31 32
342  30 32 32 32
343  30 32 31 31
344  31 32 30 32
345  28 30 30 31
346  32 33 33 32
347  30 29 28 31
348  29 31 29 31
349  29 29 27 31
350  29 28 30 30
351  32 33 31 32
352  32 32 32 34
353  33 34 33 34
354  33 34 34 34
355  36 33 32 33
356  28 29 29 31
357  32 34 34 34
358  32 33 33 33
359  34 36 32 34
360  34 33 33 34
361  34 36 33 33
362  32 32 30 32
363  35 35 34 34
364  33 34 32 32
365  34 34 33 33
366  33 32 33 35
367  63 63 62 63
368  31 31 31 29
369  0 0 0 0
370  0 0 0 0
371  0 0 0 0
372  0 0 0 0
373  0 0 0 0
374  0 0 0 0
375  32 33 32 32
376  31 32 31 32
377  33 33 33 33
378  30 31 30 32
379  34 34 34 34
380  32 34 31 33
381  36 38 35 35
382  34 35 35 34
383  40 36 34 35
384  32 33 32 32
385  33 32 32 32
386  33 33 32 36
387  32 33 32 32
388  32 32 32 32
389  33 32 33 32
390  63 63 63 63
391  32 32 32 32
392  32 33 33 33
393  32 32 34 32
394  31 32 32 33
395  63 63 63 0
396  31 32 31 32
397  32 32 32 32
398  32 33 32 33
399  32 32 31 32
400  34 33 33 34
401  32 34 33 34
402  34 35 33 33
403  32 33 33 33
404  32 32 33 33
405  35 43 46 37
406  34 35 34 34
407  33 34 32 34
408  31 32 32 32
409  34 36 35 34
410  41 34 35 34
411  34 43 34 38
412  33 33 32 33
413  33 33 32 33
414  33 34 34 33
415  32 33 32 33
416  32 32 33 32
417  32 31 33 33
418  32 32 32 33
419  32 33 32 32
420  32 32 32 32
421  32 32 32 32
422  32 32 33 33
423  32 32 32 33
424  36 40 35 41
425  32 32 32 32
426  32 33 33 33
427  33 32 33 33
428  32 33 35 34
429  34 39 33 34
430  33 34 34 33
431  32 32 32 33
432  32 32 32 32
433  33 32 32 33
434  32 32 31 33
435  32 33 32 33
436  32 32 32 33
437  33 34 32 32
438  30 32 32 32
439  33 32 33 34
440  33 33 34 34
441  35 38 33 33
442  33 35 33 33
443  32 32 32 33
444  33 33 34 33
445  31 32 32 33
446  42 36 47 41
447  32 33 33 33
448  32 33 32 33
449  32 32 33 33
450  32 32 32 33
451  33 33 33 32
452  32 33 32 32
453  32 33 31 32
454  32 32 32 32
455  32 33 32 33
456  34 32 33 34
457  32 32 32 32
458  33 34 34 33
459  32 33 32 34
460  33 33 32 33
461  32 33 32 32
462  31 32 32 32
463  32 32 32 32
464  32 32 31 32
465  33 34 32 33
466  34 34 35 34
467  31 32 31 32
468  33 35 38 35
469  33 33 32 33
470  33 33 33 35
471  32 33 32 33
472  32 33 32 33
473  31 32 31 32
474  32 33 32 32
475  31 32 30 32
476  32 32 33 32
477  32 32 32 33
478  31 31 31 32
479  32 33 32 32
480  32 31 32 32
481  32 32 32 32
482  32 32 31 31
483  32 31 31 32
484  31 29 31 31
485  31 30 31 32
486  31 31 31 31
487  30 31 31 31
488  31 31 32 32
489  31 31 31 32
490  29 23 29 30
491  32 30 30 30
492  30 30 30 31
493  32 33 32 32
494  32 32 31 32
495  32 28 30 29
496  21 7 28 13
497  30 30 30 31
498  30 28 30 29
499  31 30 32 31
500  24 19 22 26
501  30 30 31 32
502  32 32 31 30
503  29 30 28 29
504  31 31 32 30
505  30 15 29 21
506  30 30 30 29
507  30 26 30 30
508  31 30 32 31
509  32 30 32 32
510  32 32 32 31
511  31 30 30 30
512  29 5 29 3
513  31 30 31 31
514  30 30 29 30
515  29 31 30 24
516  29 29 31 31
517  21 6 26 13
518  32 32 32 31
519  31 31 31 30
520  30 23 28 30
521  29 18 29 22
522  30 29 29 29
523  28 26 31 29
524  29 27 27 19
525  29 22 30 29
526  32 33 32 31
527  28 27 27 20
528  32 30 30 28
529  30 28 29 30
530  28 23 26 13
531  30 31 29 28
532  31 29 32 30
533  30 28 31 27
534  34 30 33 32
535  28 29 30 21
536  29 25 28 28
537  29 6 29 21
538  32 30 31 29
539  32 30 32 32
540  0 0 0 0
541  0 0 0 0
542  31 22 29 28
543  30 25 28 28
544  32 32 32 31
545  32 32 32 31
546  30 32 31 32
547  30 17 31 23
548  32 26 31 27
549  31 26 30 31
550  31 31 32 31
551  31 32 32 23
552  32 31 31 29
553  31 19 31 31
554  32 29 30 31
555  31 28 31 26
556  31 31 32 32
557  31 22 29 22
558  31 31 32 32
559  31 29 29 30
560  29 24 29 21
561  30 29 30 25
562  31 26 30 30
563  30 29 31 30
564  30 27 30 30
565  31 32 32 30
566  31 31 32 31
567  31 29 30 25
568  29 18 29 20
569  30 22 31 30
570  32 30 31 31
571  31 31 30 30
572  31 30 31 30
573  32 32 32 32
574  29 17 28 13
575  31 30 31 30
576  31 28 31 30
577  32 33 31 32
578  32 30 29 24
579  30 21 29 23
580  31 31 32 31
581  30 27 29 26
582  32 30 31 31
583  29 13 23 12
584  28 18 24 12
585  29 20 27 16
586  32 24 30 32
587  32 28 31 30
588  30 21 29 18
589  31 27 31 29
590  28 20 28 26
591  29 30 30 24
592  29 16 28 24
593  32 27 29 29
594  30 28 30 28
595  31 26 31 27
596  31 26 29 25
597  26 27 28 22
598  28 23 30 28
599  27 21 27 18
600  28 17 25 19
601  30 29 30 28
602  30 29 31 27
603  31 29 31 30
604  27 23 28 22
605  29 21 28 23
606  31 30 29 29
607  25 15 28 13
608  32 32 32 32
609  32 32 32 32
610  31 29 31 31
611  33 32 32 32
612  31 31 32 26
613  32 32 33 32
614  32 32 32 32
615  32 32 31 32
616  30 15 32 17
617  32 32 32 32
618  33 32 34 32
619  31 30 31 31
620  31 30 31 30
621  29 17 29 25
622  31 31 30 31
623  29 9 28 9
624  31 30 32 24
625  31 31 31 28
626  33 32 32 32
627  32 32 32 32
628  32 30 32 31
629  31 30 32 31
630  32 32 31 30
631  28 16 27 24
632  32 32 32 32
633  31 29 32 31
634  32 30 32 31
635  28 21 30 20
636  29 23 31 26
637  32 23 31 26
638  0 0 0 0
639  31 24 29 23
